# Dose (muC/cm^2)  Height (mu)
2.500000000000000000e+01 5.130197026239954106e+00
5.000000000000000000e+01 5.041030505867765577e+00
7.500000000000000000e+01 4.957585418588647208e+00
1.000000000000000000e+02 4.856882075396036669e+00
1.250000000000000000e+02 4.773074792203425787e+00
1.500000000000000000e+02 4.610726369010815340e+00
1.750000000000000000e+02 4.593500494731697081e+00
2.000000000000000000e+02 4.495435471539086514e+00
2.250000000000000000e+02 4.367108963047179770e+00
2.500000000000000000e+02 4.261224909854568921e+00
2.750000000000000000e+02 4.200768096174043009e+00
3.000000000000000000e+02 4.105300637083543869e+00
3.250000000000000000e+02 3.969154747993045351e+00
3.500000000000000000e+02 3.881800181895506796e+00
3.750000000000000000e+02 3.774728071119908712e+00
4.000000000000000000e+02 3.678416732029409886e+00
4.250000000000000000e+02 3.526686555931870970e+00
4.500000000000000000e+02 3.389737486841372771e+00
4.750000000000000000e+02 3.281197039058734610e+00
5.000000000000000000e+02 3.120707859968235631e+00
5.250000000000000000e+02 2.975165900877736469e+00
5.500000000000000000e+02 2.831544213095098961e+00
5.750000000000000000e+02 2.659146254004600252e+00
6.000000000000000000e+02 2.444050494914101535e+00
6.250000000000000000e+02 2.305225135823602223e+00
6.500000000000000000e+02 2.143276948040964580e+00
6.750000000000000000e+02 1.934032288950465528e+00
7.000000000000000000e+02 1.700021729859967135e+00
7.250000000000000000e+02 1.243147123762428308e+00
7.500000000000000000e+02 1.268967382986830206e+00
7.750000000000000000e+02 9.842917768892913699e-01
8.000000000000000000e+02 4.688128177987929135e-01
8.250000000000000000e+02 0.000000000000000000e+00
